explored  time (s)  solution           fval        gap (%)                                         
 4800032    675.88         1   1.000000e+01   9.999000e-03                                          
 4810032    677.24         1   1.000000e+01   9.999000e-03                                          
 4820032    678.60         1   1.000000e+01   9.999000e-03                                          
 4830032    679.93         1   1.000000e+01   9.999000e-03                                          
 4840032    681.24         1   1.000000e+01   9.999000e-03                                          
 4850032    682.55         1   1.000000e+01   9.999000e-03                                          
 4860032    683.87         1   1.000000e+01   9.999000e-03                                          
 4870032    685.15         1   1.000000e+01   9.999000e-03                                          
 4880032    686.41         1   1.000000e+01   9.999000e-03                                          
 4890032    687.66         1   1.000000e+01   9.999000e-03                                          
 4900032    689.08         1   1.000000e+01   9.999000e-03                                          
 4910032    690.48         1   1.000000e+01   9.999000e-03                                          
 4920032    691.94         1   1.000000e+01   9.999000e-03                                          
 4930032    693.41         1   1.000000e+01   9.999000e-03                                          
 4940032    694.97         1   1.000000e+01   9.999000e-03                                          
 4950032    696.78         1   1.000000e+01   9.999000e-03                                          
 4960032    698.25         1   1.000000e+01   9.999000e-03                                          
 4970032    699.68         1   1.000000e+01   9.999000e-03                                          
 4980032    701.08         1   1.000000e+01   9.999000e-03                                          
 4990032    702.50         1   1.000000e+01   9.999000e-03                                          
 5000032    703.89         1   1.000000e+01   9.999000e-03                                          
 5010032    705.26         1   1.000000e+01   9.999000e-03                                          
 5020032    706.54         1   1.000000e+01   9.999000e-03                                          
 5030032    707.80         1   1.000000e+01   9.999000e-03                                          
 5040032    709.03         1   1.000000e+01   9.999000e-03                                          
 5050032    710.25         1   1.000000e+01   9.999000e-03                                          
 5060032    711.73         1   1.000000e+01   9.999000e-03                                          
 5070032    713.07         1   1.000000e+01   9.999000e-03                                          
 5080032    714.43         1   1.000000e+01   9.999000e-03                                          
 5090032    715.82         1   1.000000e+01   9.999000e-03                                          
 5100032    717.22         1   1.000000e+01   9.999000e-03                                          
 5110032    718.59         1   1.000000e+01   9.999000e-03                                          
 5120032    719.94         1   1.000000e+01   9.999000e-03                                          
 5130032    721.28         1   1.000000e+01   9.999000e-03                                          
 5140032    722.76         1   1.000000e+01   9.999000e-03                                          
 5150032    724.11         1   1.000000e+01   9.999000e-03                                          
 5160032    725.42         1   1.000000e+01   9.999000e-03                                          
 5170032    726.65         1   1.000000e+01   9.999000e-03                                          
 5180032    728.01         1   1.000000e+01   9.999000e-03                                          
 5190032    729.53         1   1.000000e+01   9.999000e-03                                          
 5200032    730.99         1   1.000000e+01   9.999000e-03                                          
 5210032    732.80         1   1.000000e+01   9.999000e-03                                          
 5220032    734.30         1   1.000000e+01   9.999000e-03                                          
 5230032    735.81         1   1.000000e+01   9.999000e-03                                          
 5240032    737.33         1   1.000000e+01   9.999000e-03                                          
 5250032    739.12         1   1.000000e+01   9.999000e-03                                          
 5260032    740.41         1   1.000000e+01   9.999000e-03                                          
 5270032    741.68         1   1.000000e+01   9.999000e-03                                          
 5280032    742.91         1   1.000000e+01   9.999000e-03                                          
 5290032    744.27         1   1.000000e+01   9.999000e-03                                          
 5300032    745.64         1   1.000000e+01   9.999000e-03                                          
 5310032    746.95         1   1.000000e+01   9.999000e-03                                          
 5320032    748.29         1   1.000000e+01   9.999000e-03                                          
 5330032    749.57         1   1.000000e+01   9.999000e-03                                          
 5340032    750.87         1   1.000000e+01   9.999000e-03                                          
 5350032    752.13         1   1.000000e+01   9.999000e-03                                          
 5360032    753.36         1   1.000000e+01   9.999000e-03                                          
 5370032    754.56         1   1.000000e+01   9.999000e-03                                          
 5380032    755.92         1   1.000000e+01   9.999000e-03                                          
 5390032    757.23         1   1.000000e+01   9.999000e-03                                          
   nodes     total   num int        integer       relative                                          
explored  time (s)  solution           fval        gap (%)                                         
 5400032    758.53         1   1.000000e+01   9.999000e-03                                          
 5410032    759.95         1   1.000000e+01   9.999000e-03                                          
 5420032    761.38         1   1.000000e+01   9.999000e-03                                          
 5430032    762.85         1   1.000000e+01   9.999000e-03                                          
 5440032    764.35         1   1.000000e+01   9.999000e-03                                          
 5450032    765.86         1   1.000000e+01   9.999000e-03                                          
 5460032    767.36         1   1.000000e+01   9.999000e-03                                          
 5470032    769.07         1   1.000000e+01   9.999000e-03                                          
 5480032    770.38         1   1.000000e+01   9.999000e-03                                          
 5490032    771.66         1   1.000000e+01   9.999000e-03                                          
 5500032    772.89         1   1.000000e+01   9.999000e-03                                          
 5510032    774.24         1   1.000000e+01   9.999000e-03                                          
 5520032    775.56         1   1.000000e+01   9.999000e-03                                          
 5530032    776.86         1   1.000000e+01   9.999000e-03                                          
 5540032    778.14         1   1.000000e+01   9.999000e-03                                          
 5550032    779.45         1   1.000000e+01   9.999000e-03                                          
 5560032    780.76         1   1.000000e+01   9.999000e-03                                          
 5570032    782.04         1   1.000000e+01   9.999000e-03                                          
 5580032    783.27         1   1.000000e+01   9.999000e-03                                          
 5590032    784.50         1   1.000000e+01   9.999000e-03                                          
 5600032    785.83         1   1.000000e+01   9.999000e-03                                          
 5610032    787.29         1   1.000000e+01   9.999000e-03                                          
 5620032    788.73         1   1.000000e+01   9.999000e-03                                          
 5630032    790.18         1   1.000000e+01   9.999000e-03                                          
 5640032    791.63         1   1.000000e+01   9.999000e-03                                          
 5650032    793.41         1   1.000000e+01   9.999000e-03                                          
 5660032    794.91         1   1.000000e+01   9.999000e-03                                          
 5670032    796.42         1   1.000000e+01   9.999000e-03                                          
 5680032    797.95         1   1.000000e+01   9.999000e-03                                          
 5690032    799.45         1   1.000000e+01   9.999000e-03                                          
 5700032    800.94         1   1.000000e+01   9.999000e-03                                          
 5710032    802.41         1   1.000000e+01   9.999000e-03                                          
 5720032    803.91         1   1.000000e+01   9.999000e-03                                          
 5730032    805.34         1   1.000000e+01   9.999000e-03                                          
 5740032    806.78         1   1.000000e+01   9.999000e-03                                          
 5750032    808.18         1   1.000000e+01   9.999000e-03                                          
 5760032    809.55         1   1.000000e+01   9.999000e-03                                          
 5770032    810.91         1   1.000000e+01   9.999000e-03                                          
 5780032    812.24         1   1.000000e+01   9.999000e-03                                          
 5790032    813.53         1   1.000000e+01   9.999000e-03                                          
 5800032    814.81         1   1.000000e+01   9.999000e-03                                          
 5810032    816.07         1   1.000000e+01   9.999000e-03                                          
 5820032    817.31         1   1.000000e+01   9.999000e-03                                          
 5830032    818.68         1   1.000000e+01   9.999000e-03                                          
 5840032    820.01         1   1.000000e+01   9.999000e-03                                          
 5850032    821.36         1   1.000000e+01   9.999000e-03                                          
 5860032    822.70         1   1.000000e+01   9.999000e-03                                          
 5870032    824.16         1   1.000000e+01   9.999000e-03                                          
 5880032    825.57         1   1.000000e+01   9.999000e-03                                          
 5890032    827.09         1   1.000000e+01   9.999000e-03                                          
 5900032    828.55         1   1.000000e+01   9.999000e-03                                          
 5910032    830.36         1   1.000000e+01   9.999000e-03                                          
 5920032    831.69         1   1.000000e+01   9.999000e-03                                          
 5930032    833.00         1   1.000000e+01   9.999000e-03                                          
 5940032    834.28         1   1.000000e+01   9.999000e-03                                          
 5950032    835.53         1   1.000000e+01   9.999000e-03                                          
 5960032    836.90         1   1.000000e+01   9.999000e-03                                          
 5970032    838.21         1   1.000000e+01   9.999000e-03                                          
 5980032    839.52         1   1.000000e+01   9.999000e-03                                          
 5990032    840.80         1   1.000000e+01   9.999000e-03                                          
   nodes     total   num int        integer       relative                                          
explored  time (s)  solution           fval        gap (%)                                         
 6000032    842.11         1   1.000000e+01   9.999000e-03                                          
 6010032    843.39         1   1.000000e+01   9.999000e-03                                          
 6020032    844.64         1   1.000000e+01   9.999000e-03                                          
 6030032    845.85         1   1.000000e+01   9.999000e-03                                          
 6040032    847.06         1   1.000000e+01   9.999000e-03                                          
 6050032    848.51         1   1.000000e+01   9.999000e-03                                          
 6060032    849.93         1   1.000000e+01   9.999000e-03                                          
 6070032    851.36         1   1.000000e+01   9.999000e-03                                          
 6080032    852.83         1   1.000000e+01   9.999000e-03                                          
 6090032    854.58         1   1.000000e+01   9.999000e-03                                          
 6100032    856.03         1   1.000000e+01   9.999000e-03                                          
 6110032    857.51         1   1.000000e+01   9.999000e-03                                          
 6120032    858.99         1   1.000000e+01   9.999000e-03                                          
 6130032    860.52         1   1.000000e+01   9.999000e-03                                          
 6140032    862.03         1   1.000000e+01   9.999000e-03                                          
 6150032    863.67         1   1.000000e+01   9.999000e-03                                          
 6160032    864.96         1   1.000000e+01   9.999000e-03                                          
 6170032    866.21         1   1.000000e+01   9.999000e-03                                          
 6180032    867.41         1   1.000000e+01   9.999000e-03                                          
 6190032    868.90         1   1.000000e+01   9.999000e-03                                          
 6200032    870.19         1   1.000000e+01   9.999000e-03                                          
 6210032    871.47         1   1.000000e+01   9.999000e-03                                          
 6220032    872.76         1   1.000000e+01   9.999000e-03                                          
 6230032    874.06         1   1.000000e+01   9.999000e-03                                          
 6240032    875.32         1   1.000000e+01   9.999000e-03                                          
 6250032    876.57         1   1.000000e+01   9.999000e-03                                          
 6260032    877.76         1   1.000000e+01   9.999000e-03                                          
 6270032    879.13         1   1.000000e+01   9.999000e-03                                          
 6280032    880.46         1   1.000000e+01   9.999000e-03                                          
 6290032    881.83         1   1.000000e+01   9.999000e-03                                          
 6300032    883.20         1   1.000000e+01   9.999000e-03                                          
 6310032    884.62         1   1.000000e+01   9.999000e-03                                          
 6320032    886.02         1   1.000000e+01   9.999000e-03                                          
 6330032    887.48         1   1.000000e+01   9.999000e-03                                          
 6340032    888.94         1   1.000000e+01   9.999000e-03                                          
 6350032    890.69         1   1.000000e+01   9.999000e-03                                          
 6360032    892.03         1   1.000000e+01   9.999000e-03                                          
 6370032    893.34         1   1.000000e+01   9.999000e-03                                          
 6380032    894.64         1   1.000000e+01   9.999000e-03                                          
 6390032    895.89         1   1.000000e+01   9.999000e-03                                          
 6400032    897.10         1   1.000000e+01   9.999000e-03                                          
 6410032    898.27         1   1.000000e+01   9.999000e-03                                          
 6420032    899.75         1   1.000000e+01   9.999000e-03                                          
 6430032    901.10         1   1.000000e+01   9.999000e-03                                          
 6440032    902.44         1   1.000000e+01   9.999000e-03                                          
 6450032    903.78         1   1.000000e+01   9.999000e-03                                          
 6460032    905.12         1   1.000000e+01   9.999000e-03                                          
 6470032    906.45         1   1.000000e+01   9.999000e-03                                          
 6480032    907.74         1   1.000000e+01   9.999000e-03                                          
 6490032    909.03         1   1.000000e+01   9.999000e-03                                          
 6500032    910.30         1   1.000000e+01   9.999000e-03                                          
 6510032    911.53         1   1.000000e+01   9.999000e-03                                          
 6520032    912.75         1   1.000000e+01   9.999000e-03                                          
 6530032    913.95         1   1.000000e+01   9.999000e-03                                          
 6540032    915.46         1   1.000000e+01   9.999000e-03                                          
 6550032    916.90         1   1.000000e+01   9.999000e-03                                          
 6560032    918.41         1   1.000000e+01   9.999000e-03                                          
 6570032    920.17         1   1.000000e+01   9.999000e-03                                          
 6580032    921.70         1   1.000000e+01   9.999000e-03                                          
 6590032    923.23         1   1.000000e+01   9.999000e-03                                          
   nodes     total   num int        integer       relative                                          
explored  time (s)  solution           fval        gap (%)                                         
 6600032    924.79         1   1.000000e+01   9.999000e-03                                          
 6610032    926.55         1   1.000000e+01   9.999000e-03                                          
 6620032    927.85         1   1.000000e+01   9.999000e-03                                          
 6630032    929.13         1   1.000000e+01   9.999000e-03                                          
 6640032    930.35         1   1.000000e+01   9.999000e-03                                          
 6650032    931.62         1   1.000000e+01   9.999000e-03                                          
 6660032    933.01         1   1.000000e+01   9.999000e-03                                          
 6670032    934.34         1   1.000000e+01   9.999000e-03                                          
 6680032    935.68         1   1.000000e+01   9.999000e-03                                          
 6690032    937.02         1   1.000000e+01   9.999000e-03                                          
 6700032    938.33         1   1.000000e+01   9.999000e-03                                          
